>>>>>Begin Processed Spectral Data<<<<<	
279.93	0.000421226
280.04	-0.106893732
280.15	-0.004617333
280.26	-0.000719621
280.37	0.002189209
280.48	-0.001298143
280.6	-0.000522224
280.71	-0.00040771
280.82	-0.007303502
280.93	0.000598491
281.04	-0.002026255
281.15	-0.001807393
281.26	0.004143854
281.37	-0.003336037
281.49	-0.001479099
281.6	0.000618049
281.71	0.004908392
281.82	-0.007943983
281.93	-0.00092242
282.04	-0.004220628
282.15	0.004127519
282.26	0.000537426
282.38	0.000242405
282.49	0.000162707
282.6	0.000192844
282.71	0.000130775
282.82	0.000115799
282.93	0.000112084
283.04	0.000103789
283.15	0.000101999
283.27	0.000120035
283.38	0.000155283
283.49	0.000164092
283.6	0.000143597
283.71	0.000145713
283.82	0.000134191
283.93	0.000109079
284.04	9.80447E-05
284.15	9.27835E-05
284.27	8.91856E-05
284.38	9.06168E-05
284.49	8.77377E-05
284.6	8.54021E-05
284.71	8.54436E-05
284.82	8.43646E-05
284.93	9.23849E-05
285.04	9.13372E-05
285.15	8.3745E-05
285.26	7.54583E-05
285.38	6.89016E-05
285.49	6.39231E-05
285.6	6.44732E-05
285.71	6.47776E-05
285.82	6.56613E-05
285.93	6.64145E-05
286.04	7.38186E-05
286.15	8.63866E-05
286.26	9.63237E-05
286.37	0.0001066
286.48	0.000114945
286.6	0.000124129
286.71	0.000118826
286.82	0.000111509
286.93	9.33808E-05
287.04	6.2991E-05
287.15	3.14871E-05
287.26	-2.64233E-06
287.37	-2.86403E-05
287.48	-4.07455E-05
287.59	-3.18412E-05
287.7	-3.04555E-06
287.82	6.06818E-05
287.93	0.000149178
288.04	0.000284577
288.15	0.00044671
288.26	0.000640193
288.37	0.000866815
288.48	0.001084294
288.59	0.00127373
288.7	0.001489798
288.81	0.001657918
288.92	0.001875205
289.03	0.001919321
289.14	0.001906427
289.25	0.001901912
289.37	0.001766582
289.48	0.001595104
289.59	0.001412348
289.7	0.00121388
289.81	0.001016471
289.92	0.000828857
290.03	0.000680898
290.14	0.000551162
290.25	0.000431326
290.36	0.000334395
290.47	0.0002808
290.58	0.000235913
290.69	0.000200293
290.8	0.000184338
290.91	0.000176044
291.02	0.000174202
291.14	0.000180662
291.25	0.00019293
291.36	0.000218012
291.47	0.000246108
291.58	0.000279364
291.69	0.000313547
291.8	0.000348267
291.91	0.000387727
292.02	0.000439039
292.13	0.000486973
292.24	0.000547003
292.35	0.000604649
292.46	0.000622535
292.57	0.000644723
292.68	0.000666603
292.79	0.000661621
292.9	0.000646144
293.01	0.000600902
293.12	0.000546894
293.23	0.000482484
293.34	0.000419216
293.46	0.000359879
293.57	0.00032387
293.68	0.000312895
293.79	0.000331716
293.9	0.000388924
294.01	0.000506814
294.12	0.000675651
294.23	0.000899749
294.34	0.001107655
294.45	0.00132456
294.56	0.001448502
294.67	0.001490239
294.78	0.001461768
294.89	0.001261329
295	0.000851161
295.11	0.000223056
295.22	-0.000529091
295.33	-0.001264535
295.44	-0.001813075
295.55	-0.002010895
295.66	-0.001599025
295.77	-0.000292452
295.88	0.002136126
295.99	0.005979834
296.1	0.011345821
296.21	0.017817256
296.32	0.024860912
296.43	0.032285352
296.54	0.040049776
296.65	0.046431039
296.76	0.051453818
296.87	0.054362826
296.98	0.0549206
297.09	0.053081585
297.2	0.049215343
297.31	0.043888287
297.42	0.036979114
297.53	0.028794738
297.64	0.021349383
297.75	0.014608875
297.86	0.008857204
297.97	0.004299147
298.08	0.001059482
298.19	-0.000919576
298.3	-0.001845408
298.41	-0.001924716
298.52	-0.001387571
298.63	-0.00037445
298.74	0.000925717
298.85	0.002362525
298.96	0.003787564
299.07	0.005086096
299.18	0.006119641
299.29	0.006972585
299.4	0.007650157
299.51	0.008045809
299.62	0.008193326
299.73	0.008103568
299.84	0.007690656
299.95	0.006899598
300.06	0.005794273
300.17	0.004550894
300.28	0.003282174
300.39	0.00227494
300.5	0.001789035
300.61	0.002076226
300.72	0.003411165
300.83	0.006013084
300.94	0.010200724
301.05	0.016338658
301.16	0.024071915
301.27	0.03312493
301.38	0.042797571
301.49	0.052380057
301.6	0.060903872
301.71	0.067955419
301.82	0.07377475
301.93	0.077675181
302.04	0.078545249
302.15	0.077091327
302.26	0.073601545
302.37	0.067923633
302.48	0.060792098
302.59	0.053041271
302.7	0.045298019
302.81	0.037634301
302.92	0.030729983
303.03	0.025436506
303.14	0.021863639
303.25	0.019804093
303.36	0.019208091
303.46	0.019653932
303.57	0.021109862
303.68	0.023089963
303.79	0.025474566
303.9	0.028079069
304.01	0.030427779
304.12	0.032405063
304.23	0.034081598
304.34	0.035508235
304.45	0.036769974
304.56	0.037947975
304.67	0.039375034
304.78	0.040974735
304.89	0.04218216
305	0.04332417
305.11	0.044661554
305.22	0.046151069
305.33	0.047565094
305.44	0.049397182
305.55	0.051152259
305.66	0.052379718
305.76	0.053271264
305.87	0.05474211
305.98	0.056228073
306.09	0.057735214
306.2	0.059145582
306.31	0.060526624
306.42	0.061944721
306.53	0.063317767
306.64	0.06507961
306.75	0.066714865
306.86	0.068553132
306.97	0.070581777
307.08	0.072982072
307.19	0.075449008
307.3	0.077989763
307.41	0.08056261
307.51	0.083010619
307.62	0.085582152
307.73	0.088300399
307.84	0.090821123
307.95	0.093113878
308.06	0.095023618
308.17	0.096848854
308.28	0.098796561
308.39	0.100754593
308.5	0.102831342
308.61	0.105109529
308.72	0.107727377
308.83	0.110608877
308.94	0.114416134
309.04	0.118159923
309.15	0.122893822
309.26	0.12806875
309.37	0.132791608
309.48	0.136925585
309.59	0.14051622
309.7	0.143179712
309.81	0.144692363
309.92	0.144101872
310.03	0.141484373
310.14	0.137438047
310.24	0.133159105
310.35	0.129495515
310.46	0.12794828
310.57	0.129356706
310.68	0.135028498
310.79	0.146061427
310.9	0.163520293
311.01	0.188367765
311.12	0.221481052
311.23	0.26308122
311.34	0.314492933
311.44	0.370060665
311.55	0.442695913
311.66	0.525513268
311.77	0.617209305
311.88	0.717617395
311.99	0.826364705
312.1	0.943004835
312.21	1.067695707
312.32	1.195845182
312.43	1.318980854
312.53	1.416105256
312.64	1.496314413
312.75	1.541732726
312.86	1.559599812
312.97	1.552610794
313.08	1.512017692
313.19	1.431252251
313.3	1.308148315
313.41	1.152250891
313.51	0.995306708
313.62	0.822896778
313.73	0.659424378
313.84	0.506536601
313.95	0.371903277
314.06	0.268915566
314.17	0.203534943
314.28	0.172172006
314.38	0.16792449
314.49	0.184252082
314.6	0.21578752
314.71	0.256849492
314.82	0.301284933
314.93	0.343896267
315.04	0.379690018
315.15	0.405647044
315.25	0.421763143
315.36	0.432974171
315.47	0.438283868
315.58	0.440070074
315.69	0.438235152
315.8	0.435961384
315.91	0.434455809
316.02	0.434766835
316.12	0.436971957
316.23	0.441706353
316.34	0.448884667
316.45	0.457409646
316.56	0.466902782
316.67	0.477892555
316.78	0.489492025
316.88	0.499370579
316.99	0.510278514
317.1	0.520371557
317.21	0.514303216
317.32	0.52234808
317.43	0.530389803
317.54	0.538158036
317.64	0.54514481
317.75	0.552741224
317.86	0.56110463
317.97	0.568851318
318.08	0.576510529
318.19	0.585571046
318.3	0.595139767
318.4	0.60336389
318.51	0.612783431
318.62	0.622519637
318.73	0.632917118
318.84	0.642776306
318.95	0.653999431
319.05	0.663861477
319.16	0.675596646
319.27	0.687465925
319.38	0.699184194
319.49	0.711210973
319.6	0.723423862
319.7	0.733811499
319.81	0.746347263
319.92	0.75780073
320.03	0.770013481
320.14	0.7807093
320.25	0.791547628
320.35	0.801161465
320.46	0.812568472
320.57	0.823765036
320.68	0.835615687
320.79	0.846978771
320.9	0.858403189
321	0.869013415
321.11	0.881522315
321.22	0.894502109
321.33	0.907698447
321.44	0.921318716
321.55	0.933931974
321.65	0.945481501
321.76	0.958926611
321.87	0.973631886
321.98	0.987571406
322.09	1.002011346
322.2	1.01654151
322.3	1.03048727
322.41	1.045762932
322.52	1.06168203
322.63	1.076687396
322.74	1.092511878
322.84	1.106540799
322.95	1.12208833
323.06	1.137148868
323.17	1.152309981
323.28	1.16701067
323.38	1.179367577
323.49	1.194240471
323.6	1.209615428
323.71	1.224884449
323.82	1.240289854
323.92	1.254764917
324.03	1.271130506
324.14	1.287963486
324.25	1.304928456
324.36	1.321789083
324.46	1.337402934
324.57	1.354820558
324.68	1.372079597
324.79	1.39004823
324.9	1.408166616
325	1.424991162
325.11	1.443476947
325.22	1.46220087
325.33	1.482916179
325.44	1.503177349
325.54	1.521934015
325.65	1.5433242
325.76	1.563733659
325.87	1.584164316
325.98	1.604257176
326.08	1.622568015
326.19	1.642349468
326.3	1.661305208
326.41	1.680081296
326.52	1.698214345
326.62	1.71382797
326.73	1.731954088
326.84	1.750285404
326.95	1.768795438
327.05	1.785026129
327.16	1.803942749
327.27	1.823348373
327.38	1.842287671
327.49	1.862099076
327.59	1.879758544
327.7	1.900705137
327.81	1.922048598
327.92	1.944602903
328.02	1.965013661
328.13	1.988312111
328.24	2.011734283
328.35	2.037074679
328.46	2.062357281
328.56	2.085343636
328.67	2.1097719
328.78	2.134806614
328.89	2.158386407
328.99	2.17900529
329.1	2.201704333
329.21	2.224256488
329.32	2.245391323
329.42	2.264755425
329.53	2.285484711
329.64	2.306333251
329.75	2.327530999
329.85	2.347440832
329.96	2.369976645
330.07	2.392652226
330.18	2.415966177
330.28	2.436815562
330.39	2.460584391
330.5	2.485743436
330.61	2.510522271
330.71	2.533803385
330.82	2.560176581
330.93	2.58663679
331.04	2.614244321
331.14	2.637819338
331.25	2.666646013
331.36	2.694782998
331.47	2.723159501
331.57	2.749266692
331.68	2.776834944
331.79	2.803500942
331.9	2.83048568
332	2.853361882
332.11	2.879440043
332.22	2.904124848
332.33	2.928604952
332.43	2.950929612
332.54	2.977930051
332.65	3.005636705
332.76	3.0350875
332.86	3.063482621
332.97	3.09903802
333.08	3.137660159
333.19	3.180371804
333.29	3.220795629
333.4	3.267089485
333.51	3.31133263
333.61	3.349116457
333.72	3.389019934
333.83	3.425786271
333.94	3.459022618
334.04	3.485890972
334.15	3.509437969
334.26	3.526770987
334.37	3.538795386
334.47	3.548961793
334.58	3.560224111
334.69	3.570087932
334.79	3.578965846
334.9	3.58989575
335.01	3.60122471
335.12	3.616374349
335.22	3.633353119
335.33	3.656947852
335.44	3.682296025
335.54	3.705359777
335.65	3.735876057
335.76	3.766265733
335.87	3.795920061
335.97	3.823852771
336.08	3.853401362
336.19	3.882849581
336.29	3.909275515
336.4	3.937098747
336.51	3.964545151
336.62	3.989967986
336.72	4.013692947
336.83	4.038239045
336.94	4.062860985
337.04	4.084607554
337.15	4.108908427
337.26	4.131634441
337.36	4.152963968
337.47	4.177900984
337.58	4.202371655
337.69	4.227655484
337.79	4.252538234
337.9	4.279928681
338.01	4.308062749
338.11	4.332651945
338.22	4.362015634
338.33	4.391121351
338.43	4.416792993
338.54	4.443733676
338.65	4.471791328
338.76	4.498643864
338.86	4.52217674
338.97	4.54772046
339.08	4.574421912
339.18	4.59573789
339.29	4.620429874
339.4	4.64439343
339.5	4.668517325
339.61	4.69192463
339.72	4.715690813
339.82	4.737854075
339.93	4.762240742
340.04	4.785857417
340.14	4.808245102
340.25	4.833363605
340.36	4.859410474
340.46	4.881684123
340.57	4.906250433
340.68	4.930220493
340.78	4.9506075
340.89	4.972796488
341	4.996481784
341.1	5.015871307
341.21	5.036071537
341.32	5.055196803
341.42	5.07251267
341.53	5.093459189
341.64	5.114801454
341.74	5.132896796
341.85	5.154920185
341.96	5.176321257
342.06	5.195079216
342.17	5.217916804
342.28	5.242705549
342.38	5.264752613
342.49	5.288071648
342.6	5.312231936
342.7	5.336244427
342.81	5.360070399
342.92	5.38266838
343.02	5.40755503
343.13	5.430105773
343.24	5.45312116
343.34	5.473597303
343.45	5.496594498
343.56	5.518398345
343.66	5.534896627
343.77	5.557253022
343.88	5.578769449
343.98	5.595971807
344.09	5.616083527
344.2	5.635448839
344.3	5.654283476
344.41	5.673803961
344.51	5.692781551
344.62	5.713955982
344.73	5.733040587
344.83	5.750857658
344.94	5.771307752
345.05	5.793161366
345.15	5.810851936
345.26	5.829058839
345.37	5.847426039
345.47	5.863620849
345.58	5.882688408
345.69	5.900535109
345.79	5.91578295
345.9	5.931878088
346	5.945193479
346.11	5.961535072
346.22	5.976508851
346.32	5.991522432
346.43	6.002143384
346.54	6.012693377
346.64	6.022045101
346.75	6.032385103
346.85	6.039707017
346.96	6.048857748
347.07	6.05483838
347.17	6.060852075
347.28	6.066977061
347.39	6.076452584
347.49	6.085049715
347.6	6.094901909
347.7	6.104100257
347.81	6.114080859
347.92	6.123455998
348.02	6.133880556
348.13	6.145978964
348.23	6.156625366
348.34	6.169836333
348.45	6.183791753
348.55	6.195462081
348.66	6.209013524
348.77	6.224707821
348.87	6.237405224
348.98	6.251999368
349.08	6.263767779
349.19	6.276505374
349.3	6.287357914
349.4	6.298880603
349.51	6.310042076
349.61	6.318832865
349.72	6.328054772
349.83	6.337153973
349.93	6.34542433
350.04	6.354172333
350.14	6.362685156
350.25	6.371078915
350.36	6.377046195
350.46	6.383929045
350.57	6.392222466
350.67	6.397301799
350.78	6.404246535
350.89	6.408025782
350.99	6.41207742
351.1	6.414458109
351.2	6.418376863
351.31	6.418907238
351.42	6.4180726
351.52	6.41666436
351.63	6.416495681
351.73	6.416113929
351.84	6.417206281
351.94	6.417537974
352.05	6.416563743
352.16	6.415504888
352.26	6.416897321
352.37	6.419118216
352.47	6.419135076
352.58	6.420821758
352.69	6.422520058
352.79	6.424587445
352.9	6.426549197
353	6.431289052
353.11	6.435225394
353.21	6.439260356
353.32	6.441324962
353.43	6.445978352
353.53	6.447685506
353.64	6.448945359
353.74	6.448616032
353.85	6.446940379
353.95	6.444705826
354.06	6.440442774
354.17	6.43208491
354.27	6.425387918
354.38	6.416353293
354.48	6.407938138
354.59	6.396911959
354.69	6.386145355
354.8	6.374806003
354.91	6.362717622
355.01	6.352662082
355.12	6.343789689
355.22	6.336713123
355.33	6.328587782
355.43	6.322000944
355.54	6.315461679
355.64	6.312490251
355.75	6.308532848
355.86	6.305897967
355.96	6.303145776
356.07	6.30112567
356.17	6.300339269
356.28	6.298285368
356.38	6.298165077
356.49	6.297009437
356.59	6.294022557
356.7	6.291445555
356.81	6.285809519
356.91	6.281066856
357.02	6.274870723
357.12	6.266621059
357.23	6.258288002
357.33	6.246893941
357.44	6.232900117
357.54	6.221823066
357.65	6.209158063
357.75	6.199041963
357.86	6.187358946
357.96	6.177237539
358.07	6.165422405
358.18	6.156175981
358.28	6.149712347
358.39	6.14430488
358.49	6.136328887
358.6	6.12708339
358.7	6.118267285
358.81	6.108570654
358.91	6.098521187
359.02	6.088010969
359.12	6.073761236
359.23	6.0577474
359.33	6.041821121
359.44	6.025487695
359.54	6.010444361
359.65	5.992364696
359.75	5.977341494
359.86	5.959191843
359.97	5.940447402
360.07	5.926095571
360.18	5.910604584
360.28	5.897463856
360.39	5.882202552
360.49	5.869738519
360.6	5.8548719
360.7	5.838560371
360.81	5.823351142
360.91	5.809385801
361.02	5.795303549
361.12	5.78060771
361.23	5.763868459
361.33	5.748608358
361.44	5.731063217
361.54	5.718755791
361.65	5.706301344
361.75	5.695165537
361.86	5.68425769
361.96	5.673732852
362.07	5.66393579
362.17	5.655543144
362.28	5.647662329
362.38	5.640150952
362.49	5.627291825
362.59	5.614681131
362.7	5.594075917
362.8	5.568520128
362.91	5.533439194
363.01	5.495975122
363.12	5.444631992
363.22	5.397300951
363.33	5.347244646
363.43	5.313940638
363.54	5.294719511
363.64	5.301760121
363.75	5.343098861
363.85	5.417461332
363.96	5.544285392
364.06	5.71146527
364.17	5.946633959
364.27	6.198392957
364.38	6.482517055
364.48	6.728942408
364.59	6.975958028
364.69	7.175352587
364.8	7.366540754
364.9	7.506217857
365.01	7.589609384
365.11	7.578571532
365.22	7.469160698
365.32	7.317860481
365.43	7.115748616
365.53	6.914356858
365.63	6.689106655
365.74	6.406049033
365.84	6.132946411
365.95	5.846029826
366.05	5.621576797
366.16	5.432652038
366.26	5.297826775
366.37	5.18266597
366.47	5.095288479
366.58	5.020784356
366.68	4.972029977
366.79	4.932959506
366.89	4.902343384
367	4.869033443
367.1	4.830851922
367.21	4.783950005
367.31	4.734636157
367.41	4.687741629
367.52	4.639157559
367.62	4.594482263
367.73	4.548258749
367.83	4.507970462
367.94	4.466514985
368.04	4.432492223
368.15	4.398090848
368.25	4.370711145
368.36	4.344181379
368.46	4.323843528
368.56	4.306137267
368.67	4.285516108
368.77	4.269938888
368.88	4.251475585
368.98	4.235083119
369.09	4.21578637
369.19	4.198452694
369.3	4.179083378
369.4	4.158057608
369.51	4.135743502
369.61	4.115797891
369.71	4.095903021
369.82	4.072927149
369.92	4.052374804
370.03	4.031658809
370.13	4.011693886
370.24	3.989652322
370.34	3.97188667
370.45	3.949886748
370.55	3.930660829
370.65	3.910199683
370.76	3.887535545
370.86	3.865916476
370.97	3.840896838
371.07	3.81880997
371.18	3.793573164
371.28	3.770235939
371.38	3.746150042
371.49	3.720332894
371.59	3.697276677
371.7	3.67272727
371.8	3.6513837
371.91	3.627504023
372.01	3.606252097
372.11	3.585206651
372.22	3.561392765
372.32	3.542467816
372.43	3.522874403
372.53	3.504003074
372.64	3.483863389
372.74	3.464978662
372.84	3.446030447
372.95	3.425539353
373.05	3.407821155
373.16	3.387853789
373.26	3.370691479
373.36	3.351129372
373.47	3.330423335
373.57	3.311695066
373.68	3.292173628
373.78	3.273458279
373.88	3.255778502
373.99	3.235445433
374.09	3.216865878
374.2	3.19522621
374.3	3.175352122
374.41	3.153406775
374.51	3.131389078
374.61	3.110382154
374.72	3.088029389
374.82	3.065985994
374.93	3.040768359
375.03	3.019352996
375.13	2.997058077
375.24	2.972582526
375.34	2.950077862
375.45	2.926814169
375.55	2.906379358
375.65	2.885798387
375.76	2.863804192
375.86	2.844663349
375.97	2.822255261
376.07	2.804211933
376.17	2.787860866
376.28	2.771062423
376.38	2.755115369
376.48	2.738537334
376.59	2.722071193
376.69	2.707283882
376.8	2.689829246
376.9	2.675625328
377	2.659358465
377.11	2.641114162
377.21	2.623313181
377.32	2.603978648
377.42	2.585774732
377.52	2.566641824
377.63	2.545371333
377.73	2.527948907
377.83	2.509181054
377.94	2.487542395
378.04	2.466392239
378.15	2.443555125
378.25	2.42337061
378.35	2.402104609
378.46	2.378279517
378.56	2.358249815
378.66	2.337541998
378.77	2.315201479
378.87	2.295970042
378.98	2.276439697
379.08	2.260342907
379.18	2.245094052
379.29	2.229572615
379.39	2.21620175
379.49	2.202581304
379.6	2.18662952
379.7	2.173592219
379.81	2.159487808
379.91	2.14636012
380.01	2.131337759
380.12	2.11407063
380.22	2.099777935
380.32	2.085095237
380.43	2.068173997
380.53	2.053572224
380.63	2.038982834
380.74	2.022535274
380.84	2.008608089
380.94	1.995645061
381.05	1.980914225
381.15	1.967868491
381.26	1.954232863
381.36	1.942341823
381.46	1.930334592
381.57	1.916029123
381.67	1.903769247
381.77	1.891074281
381.88	1.875856961
381.98	1.863012936
382.08	1.847917087
382.19	1.830356669
382.29	1.81367087
382.39	1.798001444
382.5	1.779509266
382.6	1.763000977
382.7	1.746042984
382.81	1.728970188
382.91	1.713773626
383.01	1.700245448
383.12	1.685895452
383.22	1.673684611
383.32	1.661480335
383.43	1.649353734
383.53	1.638823614
383.63	1.627864558
383.74	1.616769318
383.84	1.606198357
383.94	1.594339792
384.05	1.581018045
384.15	1.569827712
384.25	1.558076666
384.36	1.545120881
384.46	1.53294004
384.56	1.521193136
384.67	1.506789931
384.77	1.493280878
384.87	1.481433739
384.98	1.469975206
385.08	1.458138143
385.18	1.44696627
385.29	1.435180143
385.39	1.423657224
385.49	1.413412799
385.6	1.40241514
385.7	1.393100211
385.8	1.38331915
385.9	1.372242322
386.01	1.361068609
386.11	1.350694719
386.21	1.340365509
386.32	1.330287169
386.42	1.320733769
386.52	1.310564952
386.63	1.299988102
386.73	1.289752369
386.83	1.279623451
386.94	1.267938968
387.04	1.257214395
387.14	1.246545156
387.24	1.235534939
387.35	1.223458016
387.45	1.212207178
387.55	1.200431641
387.66	1.186739078
387.76	1.174632095
387.86	1.163060281
387.97	1.150138092
388.07	1.137170861
388.17	1.124798553
388.27	1.112363736
388.38	1.099326422
388.48	1.089150497
388.58	1.079098904
388.69	1.068632471
388.79	1.059304058
388.89	1.051030367
388.99	1.043817689
389.1	1.036061927
389.2	1.030175265
389.3	1.024779855
389.41	1.018211916
389.51	1.013889701
389.61	1.009185498
389.71	1.00436782
389.82	0.998434216
389.92	0.993772872
390.02	0.98783575
390.13	0.980312226
390.23	0.973085939
390.33	0.965424991
390.43	0.956874432
390.54	0.947835205
390.64	0.939725463
390.74	0.932511612
390.85	0.922367247
390.95	0.91462863
391.05	0.907107918
391.15	0.8995664
391.26	0.891262685
391.36	0.884114527
391.46	0.875516792
391.56	0.866562978
391.67	0.855647604
391.77	0.84690334
391.87	0.837380921
391.97	0.828267521
392.08	0.816940535
392.18	0.806374149
392.28	0.79452044
392.39	0.782179217
392.49	0.772179598
392.59	0.762574958
392.69	0.752468453
392.8	0.742554933
392.9	0.733012184
393	0.725607064
393.1	0.719099446
393.21	0.714067286
393.31	0.71031472
393.41	0.706633115
393.51	0.702780043
393.62	0.698736749
393.72	0.694507336
393.82	0.69133267
393.92	0.687111714
394.03	0.682031793
394.13	0.676173107
394.23	0.669782783
394.33	0.663356612
394.44	0.655866794
394.54	0.649517895
394.64	0.643194845
394.74	0.636446651
394.85	0.629853491
394.95	0.623006916
395.05	0.617192802
395.15	0.612334701
395.25	0.607240488
395.36	0.602018547
395.46	0.597577595
395.56	0.593858142
395.66	0.588937819
395.77	0.583534055
395.87	0.5798551
395.97	0.577016164
396.07	0.572363193
396.18	0.567531573
396.28	0.563085186
396.38	0.55855462
396.48	0.554529321
396.59	0.550663207
396.69	0.546544456
396.79	0.542430786
396.89	0.536982476
396.99	0.531823043
397.1	0.526906787
397.2	0.523084278
397.3	0.518555362
397.4	0.513140183
397.51	0.507579256
397.61	0.5027525
397.71	0.496569313
397.81	0.492141505
397.91	0.48817284
398.02	0.48216859
398.12	0.477183463
398.22	0.481251213
398.32	0.475669236
398.42	0.469317094
398.53	0.462742393
398.63	0.457996886
398.73	0.451640091
398.83	0.445739765
398.93	0.439957457
399.04	0.43414963
399.14	0.428865002
399.24	0.424660741
399.34	0.420481116
399.45	0.415904577
399.55	0.41228325
399.65	0.408922626
399.75	0.406232158
399.85	0.403654184
399.96	0.400621407
400.06	0.397981947
